# BoxSize: 20
# Nmesh: 64
# Number    Log10 k [h/Mpc] Log10 P(k) [h^3/Mpc^3] Number of modes
    1         -0.3670272         -1.2721217         17
    2        -0.12530232         -1.7188757         41
    3        0.028831027         -2.0332945         89
    4         0.14183672         -2.2849996        129
    5         0.23393087         -2.5444417        225
    6         0.30569479         -2.6329276        253
    7         0.36853349         -2.8947695        393
    8         0.42372564         -3.0226085        461
    9         0.47299183         -3.1635795        613
   10         0.51676893            -3.2534        713
   11         0.55593826          -3.415688        845
   12          0.5924325         -3.5104549       1025
   13         0.62676199          -3.630533       1229
   14         0.65779889         -3.7002278       1313
   15         0.68660097         -3.7988584       1585
   16         0.71373069         -3.9014733       1701
   17         0.73932923         -3.9704682       2021
   18         0.76359283         -4.0834584       2181
   19         0.78660442         -4.1509182       2473
   20         0.80844179         -4.2454421       2697
   21         0.82911771         -4.3016978       2949
   22         0.84876887         -4.4117553       3237
   23         0.86776841         -4.4772697       3577
   24         0.88584853         -4.5575943       3761
   25         0.90323996          -4.629718       4249
   26         0.92010958         -4.7000279       4465
   27         0.93629823         -4.7720007       4937
   28         0.95174237         -4.8293529       5013
   29         0.96667119         -4.8738275       5677
   30         0.98107596         -4.9204083       5773
   31          0.9951595         -4.9467968       6489
   32          1.0087913         -4.9741872       6439
   33          1.0219617          -5.046298       6326
   34          1.0347523         -5.1320874       6010
   35          1.0471431         -5.1849718       5732
   36          1.0592668         -5.2340025       5476
   37            1.07098          -5.263179       5072
   38          1.0823537         -5.2842195       4712
   39          1.0934732         -5.2817899       4418
   40          1.1041986         -5.2768394       3840
   41          1.1148085         -5.2566634       3680
   42          1.1252575         -5.2374948       3054
   43          1.1353138         -5.1983712       2612
   44          1.1450423          -5.190964       2086
   45          1.1547552         -5.1337331       1651
   46          1.1643479          -5.114656       1176
   47          1.1734092         -5.0704475        875
   48          1.1822725         -5.0035099        667
   49          1.1914547         -4.9798155        503
   50          1.2007837         -4.8693228        342
   51           1.209122         -4.7323723        162
   52          1.2159449         -4.8004862        118
   53          1.2244153         -4.5997161         66
   54          1.2330883         -4.6975882         18
